y[m],V_H[mV]
0.000,-0.113
0.010,-0.137
0.020,-0.167
0.040,-0.223
0.060,-0.307
0.080,-0.427
0.100,-0.604
0.110,-0.73
0.120,-0.923
0.130,-1.159
0.140,-1.453
0.150,-1.901
0.160,-2.465
0.170,-3.072
0.180,-3.454
0.190,-3.092
0.195,-2.542
0.200,-1.95
0.205,-1.003
0.210,-0.125
0.215,0.821
0.220,1.694
0.225,2.443
0.230,3.03
0.235,3.389
0.240,3.464
0.250,3.192
0.260,2.619
0.270,2.063
0.280,1.637
0.290,1.301
0.300,1.062
0.310,0.885
0.320,0.754
0.340,0.572
0.360,0.446
0.380,0.373
0.400,0.31
