y[m],vh[mV]
0.0,-0.113
0.01,-0.137
0.02,-0.167
0.04,-0.223
0.06,-0.307
0.08,-0.427
0.1,-0.604
0.11,-0.73
0.12,-0.923
0.13,-1.159
0.14,-1.453
0.15,-1.901
0.16,-2.465
0.17,-3.072
0.18,-3.454
0.19,-3.092
0.195,-2.542
0.2,-1.95
0.205,-1.003
0.21,-0.125
0.215,0.821
0.22,1.694
0.225,2.443
0.23,3.03
0.235,3.389
0.24,3.464
0.25,3.192
0.26,2.619
0.27,2.063
0.28,1.637
0.29,1.301
0.3,1.062
0.31,0.885
0.32,0.754
0.34,0.572
0.36,0.446
0.38,0.373
0.4,0.31
